t[s],Fx_FL_SupportCenter,Fy_FL_SupportCenter,Fz_FL_SupportCenter,Tx_FL_SupportCenter,Ty_FL_SupportCenter,Tz_FL_SupportCenter,Fx_FR_SupportCenter,Fy_FR_SupportCenter,Fz_FR_SupportCenter,Tx_FR_SupportCenter,Ty_FR_SupportCenter,Tz_FR_SupportCenter
0.0,80.65697165019661,64.74823992538552,115.09351832070061,-4.60916333738998,11.50948797727331,-13.328738062439928,93.21896574639688,66.56491211939431,133.040412263945,-5.32639773990828,13.304294558567651,10.680690841923912
0.01,81.71917170497713,46.41013476930649,116.69709915799328,-4.6722315550997955,11.674143424167344,-13.020944624227017,83.60957767380141,47.33471777415599,119.40063392836461,-4.779803923898485,11.944726957284663,9.63657546095803
0.02,69.67214401180514,38.884597797043725,116.18337086443046,-4.650846463752024,11.624157277445631,-10.096291795908952,76.59128954007996,41.90104113756608,162.2831535007896,-6.4942388180903,16.233674041084768,8.499777905920208
0.03,56.84222253655284,37.34585107851004,231.48618015518656,-9.261872486810686,23.151162848626107,-6.837642628424109,65.5494351819707,40.50866907283289,282.6171308554937,-11.306633416334094,28.263786350531067,6.1547719847288835
0.04,47.86383647502703,33.14630253414752,258.87263306206063,-10.356630510589499,25.88830660076568,-4.205620722817834,57.610583248445934,36.31220226143185,310.2851230603066,-12.41275272643266,31.02910480867919,4.75769266785329
0.05,40.97843604104712,29.080620608172225,258.6841961550274,-10.348584848477365,25.868662344280466,-2.086036746896038,48.49105424346819,32.77612565327264,318.1699991858171,-12.727695116920453,28.685031308416857,3.89284768141598
0.06,32.27473244399449,25.888416137045493,256.93952277582304,-10.278382883410103,22.417029583658493,-0.48854850266685196,36.86042303927823,30.249441390250194,325.1315674216574,-13.00577913553774,22.414716001230218,3.3105043907141565
0.07,24.00601322599562,23.22300067924897,259.2002883768041,-10.3684573868215,17.879010760865565,0.5056819200987236,29.19054722238198,27.420586817739114,321.67605782496275,-12.867260856391647,17.93330022607497,2.819526666784848
0.08,18.147040167344123,21.139060576089577,259.80868051479706,-10.3925059832611,14.391497018836793,1.140733461548493,23.658599317999414,24.747606360287147,316.4782644516292,-12.322248538530495,14.426426550338915,2.4491801683154226
0.09,13.827502100374726,18.606175779798743,261.56863146915435,-9.43523741782473,11.596577415553181,1.434657505119935,19.246027318186798,19.433770206316453,311.9493628659051,-9.034915355000829,11.447353489468108,2.570730052766297
0.1,10.577080986007605,14.080077305772065,265.46921457307366,-6.506800822723961,9.264312015529836,1.9946004013580967,15.647636072761356,15.247964822387157,306.5008856344452,-6.406628236407513,8.91826453880031,2.3337583625723144
0.11,8.167841171712565,10.357950386060306,268.954730533654,-4.00976026838077,7.309214022102015,2.332120821471034,12.713306623551542,11.772982032975648,301.8064169113037,-4.149787391321979,6.715339009645391,2.037456704931112
0.12,6.354420737949551,7.188883971627897,272.1789101218755,-1.8204716210821685,5.627420107430345,2.497023005097932,10.223683557634759,8.776920497097413,297.9223135485032,-2.15313566046206,4.736269823393668,1.6905253964473872
0.13,4.97349243849485,4.374266587930742,275.19159707294347,0.15764252216896468,4.147505535651303,2.5212940015614707,8.026539701309572,6.0755735328027605,294.793231144587,-0.32883464746148977,2.9076172478939175,1.2947821997288558
0.14,3.8993317691106224,1.7369770502363058,278.0317361633144,2.0102110529231747,2.81440194374016,2.427292928565431,5.999061332786697,3.5025456187848305,292.3530582937188,1.4026400832696262,1.1701545838494585,0.8493898715088514
0.15,3.0269558383541573,-0.8983398814127308,280.76335021082286,3.8223495386288913,1.5815540780669457,2.2323716188715217,4.033413386438744,0.8900598069418182,290.5595134478435,3.122163729883094,-0.5284278039447549,0.35259859152608786
0.16,2.2587346941455784,-3.7246705759897267,283.49575163208254,5.689374325394147,0.4045674181454268,1.9534110898623214,2.0256434097144917,-1.9497390305598932,289.4111874393856,4.921823287587684,-2.2393501109430525,-0.1965028402677492
0.17,1.4898713408044741,-6.9796924024628195,286.4078960262898,7.731783417163466,-0.7657508397362734,1.6126919729880131,-0.1352702819617361,-5.250506365686879,288.96913679660247,6.918680374286909,-4.019027837270236,-0.7955279352541557
0.18,0.5821911668513791,-10.999802718342805,289.77226604954194,10.123477418170504,-1.9946549844529264,1.2488923710455848,-2.5851532949551865,-9.34162486905115,289.3856473411825,9.28012889646871,-5.938982937371202,-1.4343414667435022
0.19,-0.6868942605740951,-14.668213005908301,294.2066474935865,11.768343624152514,-3.4218759470099798,0.7106319384710533,-5.488474056536906,-14.021963482493316,291.4422551121426,11.657729532708967,-8.101605309175287,-2.064238905248949
0.2,-2.865566557190641,-17.458661297980218,300.24771908452817,12.010205637322995,-5.283190861804102,0.15589100427981345,-8.957490457969437,-16.773380715092312,297.49902162479066,11.900209194576474,-10.687105254606816,-3.034518627851568
0.21,-6.3351911225121365,-21.319880946547467,311.1580513100239,12.446899530489757,-7.853903337024244,-0.25458706057359615,-13.673003824888273,-20.572174137749677,308.6561166191024,12.346757485272708,-14.054333668628962,-4.038523919554097
0.22,-12.116331891636483,-26.624176744498293,332.76467340413024,13.311527692803532,-11.799732446290006,-0.3461194923625575,-20.63113576262222,-25.766519377613797,330.2393704230117,13.210425679680368,-18.907665067370694,-5.040060798092283
0.23,-22.12749198104728,-33.92477139071654,376.83758481322525,15.074922392278419,-18.42752511809165,0.22376484760349136,-31.717259911787075,-32.865634862016655,373.04612426040904,14.923134182350811,-26.63664961749692,-5.95004006129617
0.24,-40.06785117919974,-44.02525104323934,467.67463848097407,18.709044214112698,-30.361150718733985,2.114404272902169,-50.66033102660537,-42.59166164239603,459.28493064854604,18.37326229997808,-40.05920937035583,-6.582596024769245
0.25,-73.61978061598542,-58.0084802148481,655.5012396650552,26.222969922623438,-53.01325584738605,6.559550605755011,-83.04206333193333,-55.804910516302705,636.6449221747628,25.468416220733058,-63.66462661625641,-6.668723999966056
0.26,-139.20787086207767,-76.74881928753072,1049.8337466059247,41.99739087606508,-97.73891219012664,15.878487808656681,-131.76992030016427,-72.66292279079856,1015.8714252724612,40.63840378534458,-101.58834723350408,-5.920960871522779
0.27,-225.9193978102671,-99.49282782382785,1928.6942291781972,77.15259661128212,-165.71551728611234,25.619959885253788,-237.40179828847118,-96.63348835740126,1729.2597764866964,69.17475021944169,-172.8947399899764,-9.937032843805998
0.28,-170.34263360371085,-95.18117144623183,2071.100910060542,82.85115446237592,-155.60220513549433,18.2774226699708,-217.60655527942774,-92.86850515053099,1843.7103048237504,73.75578972189516,-167.31448038120666,-4.81336885069067
0.29,-30.431431625305542,-126.9936909463692,2355.9650991185586,94.2477465433243,-132.44186068743176,-12.151200074122759,-306.4902800417339,-151.4158243578285,1789.7644421801317,71.6022487605332,-178.0073087742163,-18.29571504048759
0.3,0.0,0.0,0.0,0.0,0.0,0.0,0.0,0.0,0.0,0.0,0.0,0.0
0.31,0.0,0.0,0.0,0.0,0.0,0.0,0.0,0.0,0.0,0.0,0.0,0.0
0.32,0.0,0.0,0.0,0.0,0.0,0.0,0.0,0.0,0.0,0.0,0.0,0.0
0.33,0.0,0.0,0.0,0.0,0.0,0.0,0.0,0.0,0.0,0.0,0.0,0.0
0.34,0.0,0.0,0.0,0.0,0.0,0.0,0.0,0.0,0.0,0.0,0.0,0.0
0.35,0.0,0.0,0.0,0.0,0.0,0.0,0.0,0.0,0.0,0.0,0.0,0.0
0.36,0.0,0.0,0.0,0.0,0.0,0.0,0.0,0.0,0.0,0.0,0.0,0.0
0.37,0.0,0.0,0.0,0.0,0.0,0.0,0.0,0.0,0.0,0.0,0.0,0.0
0.38,0.0,0.0,0.0,0.0,0.0,0.0,0.0,0.0,0.0,0.0,0.0,0.0
0.39,0.0,0.0,0.0,0.0,0.0,0.0,0.0,0.0,0.0,0.0,0.0,0.0
0.4,0.0,0.0,0.0,0.0,0.0,0.0,0.0,0.0,0.0,0.0,0.0,0.0
0.41,0.0,0.0,0.0,0.0,0.0,0.0,0.0,0.0,0.0,0.0,0.0,0.0
0.42,0.0,0.0,0.0,0.0,0.0,0.0,0.0,0.0,0.0,0.0,0.0,0.0
0.43,0.0,0.0,0.0,0.0,0.0,0.0,0.0,0.0,0.0,0.0,0.0,0.0
0.44,0.0,0.0,0.0,0.0,0.0,0.0,0.0,0.0,0.0,0.0,0.0,0.0
0.45,0.0,0.0,0.0,0.0,0.0,0.0,0.0,0.0,0.0,0.0,0.0,0.0
0.46,0.0,0.0,0.0,0.0,0.0,0.0,0.0,0.0,0.0,0.0,0.0,0.0
0.47,0.0,0.0,0.0,0.0,0.0,0.0,0.0,0.0,0.0,0.0,0.0,0.0
0.48,0.0,0.0,0.0,0.0,0.0,0.0,0.0,0.0,0.0,0.0,0.0,0.0
0.49,0.0,0.0,0.0,0.0,0.0,0.0,0.0,0.0,0.0,0.0,0.0,0.0
0.5,0.0,0.0,0.0,0.0,0.0,0.0,0.0,0.0,0.0,0.0,0.0,0.0
0.51,0.0,0.0,0.0,0.0,0.0,0.0,0.0,0.0,0.0,0.0,0.0,0.0
0.52,0.0,0.0,0.0,0.0,0.0,0.0,0.0,0.0,0.0,0.0,0.0,0.0
0.53,0.0,0.0,0.0,0.0,0.0,0.0,0.0,0.0,0.0,0.0,0.0,0.0
0.54,0.0,0.0,0.0,0.0,0.0,0.0,0.0,0.0,0.0,0.0,0.0,0.0
0.55,0.0,0.0,0.0,0.0,0.0,0.0,0.0,0.0,0.0,0.0,0.0,0.0
0.56,0.0,0.0,0.0,0.0,0.0,0.0,0.0,0.0,0.0,0.0,0.0,0.0
0.57,0.0,0.0,0.0,0.0,0.0,0.0,0.0,0.0,0.0,0.0,0.0,0.0
0.58,0.0,0.0,0.0,0.0,0.0,0.0,0.0,0.0,0.0,0.0,0.0,0.0
0.59,39.63374184460299,126.46299492771155,3550.2172328741367,-30.638532326470983,-96.5838904978098,-5.813484588554442,31.688961958488658,113.26619486089818,3415.526493678913,-21.715895201788914,-101.38638621286435,14.068954138225322
0.6,-126.55505860386167,28.39978763728438,1564.9167288976898,-17.625181269158222,-19.980518503787867,-3.8135192814306764,-121.36201651233073,25.25981779364016,1570.4276800723453,-15.5495924419891,-21.128205558057637,1.1481879845697491
0.61,63.59456979222531,29.00957686926058,620.8053506473017,-18.8021988205999,41.7761362931407,-12.223653952804975,66.31342393936474,16.89883948039721,652.4738103461341,-9.487558481517397,41.30787339192522,8.833217923246558
0.62,77.83901350674249,23.351722329735914,377.6493118704458,-15.106058489147031,37.76585269539403,-11.811098050859718,83.55657036122798,13.208523792681616,400.78895911497426,-7.269426290860147,40.07961914288193,9.216333748553447
0.63,63.1425129654449,18.579597829599184,298.51862833764034,-11.940828874092729,29.85285514107542,-8.688916632950983,68.2885228375671,11.54082347640188,320.3709884208851,-6.466656008200899,32.037911355888056,7.198081388221624
0.64,53.26815035052232,16.256178954567613,271.1895445591773,-10.695042000950707,27.119449864107455,-6.607592257106006,58.09445664634899,9.743881898605519,292.1178390469185,-5.562269204618747,29.21211127492885,5.844506162146098
0.65,45.451078604372874,13.444809067133304,260.0839674136171,-8.702668150844138,25.523968852102854,-4.755925407580576,47.412809109579705,8.569045710705273,286.9307937358243,-4.848104667569269,25.595775536705727,4.78975329377933
0.66,33.26613550804357,10.908974861867515,266.8090164993211,-7.099339567995261,19.85183785609878,-3.5010826741232055,35.14839945732275,7.158428015208126,290.23863047224273,-4.134876759720338,19.95990941345648,3.968174332779683
0.67,24.566897263112125,8.918446666108514,270.6794356360244,-5.840180253127571,15.667241011937975,-2.6244659308448126,26.348782273303545,5.948612230537895,291.03728239799176,-3.4967815046255346,15.799916111647445,3.367465055444221
0.68,18.127705589996527,7.343962231412165,274.27376795721085,-4.841084119500183,12.463890732786362,-2.0197499340599663,19.80553018415043,4.914559024348902,291.8136869584131,-2.929789058046348,12.612792602688298,2.928421165500258
0.69,13.297982133360598,6.088287504295026,277.9243812876771,-4.042789384347376,9.970629513720652,-1.614070182024723,14.871319735184558,4.029247533325609,292.8310132219888,-2.4285030485248233,10.130171598347536,2.609232920356159
0.7,9.66107777247187,5.0807135072209,281.5494279500217,-3.3991262995931972,8.008486462084011,-1.3547209469112633,11.128515138870872,3.2697763865318423,294.0452243583957,-1.984004617064625,8.172793662393275,2.380153380523481
0.71,6.912547526517612,4.267938752573725,285.0807445820437,-2.878504044754183,6.445513183568665,-1.2014611400721922,8.276503616400749,2.618360667859745,295.3467214123568,-1.592352872329279,6.611392965182956,2.2183203667335416
0.72,4.828258375695849,3.608019434006701,288.4329789501795,-2.453047945486998,5.1845259997464925,-1.124305710041667,6.090264412645437,2.0579247735261657,296.67317919863734,-1.245628978004971,5.3484569718136035,2.106835119049957
0.73,3.2361315395235506,3.0696355916424483,291.5643767840381,-2.1032600504951517,4.150993926362218,-1.1004294966961075,4.3997511868923445,1.5757450994740647,297.9728765589546,-0.9392311033572819,4.310623781773475,2.032507979510335
0.74,2.0039870169337535,2.630656600177849,294.4560104861714,-1.817566114135131,3.287496958880723,-1.1129127478415715,3.075381002589626,1.1635193745100103,299.2053304823769,-0.6724890971803977,3.4421700730044775,1.9847878047907332
0.75,1.0353383401623462,2.268633588202645,297.0824415690586,-1.5793844531164924,2.5528166654466102,-1.1487760029889074,2.018952189854383,0.8083818681811774,300.3616464488152,-0.43707059623276706,2.7009532696709804,1.9561764368347903
0.76,0.24996736485578294,1.9717648889505153,299.4450537781421,-1.3832257654228026,1.9123667605714185,-1.1982744619201584,1.1524711002126014,0.5063062548150752,301.4269921249512,-0.2336305336284761,2.0536928942533397,1.9400076757293363
0.77,-0.4110503295926074,1.7262705971668917,301.54740158261103,-1.220444167269445,1.3411542430042034,-1.2540316019516162,0.41657597050568024,0.24910738268675675,302.39114665505224,-0.05822746096355808,1.4754731458903707,1.93117377570737
0.78,-0.996934517421052,1.5231319575979907,303.3815438467044,-1.0848475374761157,0.8180721324151767,-1.3101919024038402,-0.23878200902606375,0.032192884406227494,303.26297352649533,0.09147751944737154,0.944794757766259,1.9252762380029895
0.79,-1.5494176233609838,1.3539940124030412,304.9547699015844,-0.9711626679572868,0.3256616431351223,-1.3619204906749296,-0.8552342902791586,-0.14902261249369989,304.03848418218206,0.21755410439474537,0.4443805991326306,1.918332445197646
0.8,-2.1063362321269867,1.2116930518289268,306.2732744447253,-0.8751589502267041,-0.1521009503733845,-1.40514564193281,-1.47105440367023,-0.29835535577162664,304.7122610193293,0.3214001234331053,-0.04174747068180904,1.90642271661021
0.81,-2.7043837780031152,1.0900693894624978,307.3323703201168,-0.7925909270001917,-0.6308338999967185,-1.4359876584844393,-2.12399383218476,-0.4187317926514684,305.2851892999726,0.40438494201181296,-0.5295746903084935,1.8854976896106694
0.82,-3.384550507543064,0.9853582333402868,308.12231542231893,-0.7205620491818356,-1.1282691212025289,-1.4503606494114365,-2.8551289768328685,-0.510429162747061,305.7559709563904,0.46629794212027603,-1.0369488496705856,1.8510143072215817
0.83,-4.189296162554935,0.8859134924321597,308.67283795565896,-0.6536191271787015,-1.661937811898851,-1.4437253716290066,-3.707346573131677,-0.5811797772818174,306.07086274972505,0.5096896581040554,-1.5807117158037627,1.7982241623558926
0.84,-5.170916695522216,0.7887992070583492,308.9307705994061,-0.5885346286614571,-2.255321597470238,-1.4107880337793592,-4.734705406298179,-0.6291695390051432,306.2178648451333,0.5334046383677762,-2.185339196069564,1.7205645314740412
0.85,-6.382107974480778,0.6879812204505917,308.78451333020644,-0.5210197913224006,-2.933125033064607,-1.344863853388579,-5.990996471627088,-0.6544473074337935,306.0775182288174,0.5366083611087745,-2.875829793122262,1.61012447743144
0.86,-7.814652641565822,0.5735855736406957,307.6575397705396,-0.4451836212400818,-3.702561901696148,-1.2368564880442705,-7.468597165041041,-0.6592090772866349,305.03681599038805,0.5190586617092902,-3.6591282230434583,1.4581437808307698
0.87,-9.017187301483474,0.45345426426131263,301.95735585402053,-0.3608570684199235,-4.434055485856305,-1.0774191487197338,-8.7220107167152,-0.6228189539533172,299.56695380163916,0.4706012959318968,-4.407083211181627,1.2455889038763257
0.88,-6.612274992957904,0.34575191976323294,269.6487144112205,-0.26893358393387845,-4.071854585918333,-0.8481716115076319,-6.386139420764906,-0.4962471421492531,267.7382240572226,0.37092595732796296,-4.062104537948127,0.937281358366942
